# Potential, Kinetic and Total energy per atom (divided by the total number of atoms) of the Ar
# from the first step to the 500
# The potential energy is calculated with the Lennard-Jones potential shiftted to avoid discontinuties
# The kinetic energy is the sum of 1/2v**2 of each particle
# The total energy is the sum of the kinetic and potential energy 
# Step                      Potential Energy per atom   Kinetic Energy per atom     Total Energy per atom 
 1                                    -6.972346             0.926668                      -6.045678 
 2                                    -6.970823             0.925180                      -6.045643 
 3                                    -6.966223             0.920683                      -6.045540 
 4                                    -6.958447             0.913079                      -6.045369 
 5                                    -6.947332             0.902201                      -6.045131 
 6                                    -6.932652             0.887826                      -6.044826 
 7                                    -6.914141             0.869684                      -6.044457 
 8                                    -6.891510             0.847486                      -6.044024 
 9                                    -6.864485             0.820956                      -6.043529 
 10                                   -6.832866             0.789886                      -6.042980 
 11                                   -6.796622             0.754210                      -6.042412 
 12                                   -6.755932             0.714095                      -6.041837 
 13                                   -6.711287             0.670041                      -6.041246 
 14                                   -6.663662             0.622970                      -6.040692 
 15                                   -6.614417             0.574260                      -6.040157 
 16                                   -6.565334             0.525693                      -6.039642 
 17                                   -6.518444             0.479289                      -6.039155 
 18                                   -6.475781             0.437053                      -6.038728 
 19                                   -6.439052             0.400695                      -6.038357 
 20                                   -6.409478             0.371407                      -6.038072 
 21                                   -6.387622             0.349749                      -6.037873 
 22                                   -6.373410             0.335664                      -6.037746 
 23                                   -6.366252             0.328582                      -6.037670 
 24                                   -6.365197             0.327574                      -6.037623 
 25                                   -6.369131             0.331526                      -6.037604 
 26                                   -6.376908             0.339295                      -6.037613 
 27                                   -6.387441             0.349816                      -6.037625 
 28                                   -6.399810             0.362168                      -6.037642 
 29                                   -6.413240             0.375586                      -6.037654 
 30                                   -6.427100             0.389435                      -6.037665 
 31                                   -6.440874             0.403180                      -6.037694 
 32                                   -6.454088             0.416351                      -6.037737 
 33                                   -6.466316             0.428541                      -6.037775 
 34                                   -6.477239             0.439408                      -6.037831 
 35                                   -6.486583             0.448686                      -6.037897 
 36                                   -6.494156             0.456191                      -6.037964 
 37                                   -6.499862             0.461825                      -6.038037 
 38                                   -6.503664             0.465556                      -6.038109 
 39                                   -6.505578             0.467407                      -6.038170 
 40                                   -6.505679             0.467443                      -6.038236 
 41                                   -6.504037             0.465755                      -6.038282 
 42                                   -6.500795             0.462462                      -6.038333 
 43                                   -6.496077             0.457714                      -6.038363 
 44                                   -6.490089             0.451697                      -6.038392 
 45                                   -6.483070             0.444645                      -6.038425 
 46                                   -6.475303             0.436850                      -6.038453 
 47                                   -6.467135             0.428665                      -6.038470 
 48                                   -6.458960             0.420501                      -6.038459 
 49                                   -6.451261             0.412816                      -6.038444 
 50                                   -6.444510             0.406089                      -6.038421 
 51                                   -6.439195             0.400781                      -6.038413 
 52                                   -6.435717             0.397290                      -6.038427 
 53                                   -6.434372             0.395903                      -6.038469 
 54                                   -6.435285             0.396762                      -6.038523 
 55                                   -6.438437             0.399847                      -6.038591 
 56                                   -6.443640             0.404982                      -6.038659 
 57                                   -6.450592             0.411865                      -6.038727 
 58                                   -6.458908             0.420108                      -6.038801 
 59                                   -6.468145             0.429274                      -6.038871 
 60                                   -6.477853             0.438917                      -6.038936 
 61                                   -6.487611             0.448609                      -6.039002 
 62                                   -6.497026             0.457963                      -6.039063 
 63                                   -6.505771             0.466651                      -6.039120 
 64                                   -6.513626             0.474423                      -6.039203 
 65                                   -6.520346             0.481111                      -6.039236 
 66                                   -6.525892             0.486631                      -6.039260 
 67                                   -6.530266             0.490976                      -6.039289 
 68                                   -6.533510             0.494195                      -6.039314 
 69                                   -6.535711             0.496373                      -6.039338 
 70                                   -6.536958             0.497611                      -6.039348 
 71                                   -6.537364             0.498009                      -6.039355 
 72                                   -6.537031             0.497657                      -6.039373 
 73                                   -6.536005             0.496634                      -6.039371 
 74                                   -6.534361             0.495003                      -6.039358 
 75                                   -6.532173             0.492823                      -6.039350 
 76                                   -6.529490             0.490152                      -6.039338 
 77                                   -6.526396             0.487064                      -6.039332 
 78                                   -6.522992             0.483656                      -6.039336 
 79                                   -6.519430             0.480075                      -6.039354 
 80                                   -6.515903             0.476528                      -6.039375 
 81                                   -6.512666             0.473286                      -6.039380 
 82                                   -6.510030             0.470665                      -6.039365 
 83                                   -6.508313             0.468974                      -6.039339 
 84                                   -6.507759             0.468437                      -6.039321 
 85                                   -6.508427             0.469118                      -6.039309 
 86                                   -6.510184             0.470885                      -6.039299 
 87                                   -6.512719             0.473433                      -6.039286 
 88                                   -6.515625             0.476362                      -6.039262 
 89                                   -6.518507             0.479278                      -6.039229 
 90                                   -6.521088             0.481883                      -6.039205 
 91                                   -6.523181             0.484020                      -6.039161 
 92                                   -6.524781             0.485680                      -6.039101 
 93                                   -6.525982             0.486958                      -6.039024 
 94                                   -6.526940             0.487997                      -6.038943 
 95                                   -6.527791             0.488925                      -6.038866 
 96                                   -6.528603             0.489816                      -6.038786 
 97                                   -6.529395             0.490669                      -6.038726 
 98                                   -6.530087             0.491419                      -6.038668 
 99                                   -6.530581             0.491971                      -6.038611 
 100                                  -6.530777             0.492233                      -6.038544 
 101                                  -6.530636             0.492159                      -6.038478 
 102                                  -6.530173             0.491765                      -6.038409 
 103                                  -6.529474             0.491140                      -6.038334 
 104                                  -6.528702             0.490434                      -6.038269 
 105                                  -6.528048             0.489829                      -6.038219 
 106                                  -6.527697             0.489508                      -6.038189 
 107                                  -6.527799             0.489621                      -6.038178 
 108                                  -6.528427             0.490259                      -6.038169 
 109                                  -6.529616             0.491437                      -6.038179 
 110                                  -6.531290             0.493101                      -6.038188 
 111                                  -6.533336             0.495139                      -6.038196 
 112                                  -6.535604             0.497401                      -6.038203 
 113                                  -6.537923             0.499719                      -6.038204 
 114                                  -6.540159             0.501930                      -6.038229 
 115                                  -6.542141             0.503885                      -6.038256 
 116                                  -6.543741             0.505463                      -6.038278 
 117                                  -6.544865             0.506574                      -6.038292 
 118                                  -6.545476             0.507174                      -6.038301 
 119                                  -6.545576             0.507271                      -6.038304 
 120                                  -6.545225             0.506931                      -6.038294 
 121                                  -6.544546             0.506275                      -6.038271 
 122                                  -6.543691             0.505467                      -6.038224 
 123                                  -6.542846             0.504683                      -6.038163 
 124                                  -6.542167             0.504073                      -6.038093 
 125                                  -6.541748             0.503717                      -6.038031 
 126                                  -6.541585             0.503598                      -6.037987 
 127                                  -6.541576             0.503604                      -6.037972 
 128                                  -6.541533             0.503556                      -6.037977 
 129                                  -6.541240             0.503257                      -6.037983 
 130                                  -6.540530             0.502544                      -6.037987 
 131                                  -6.539300             0.501326                      -6.037974 
 132                                  -6.537579             0.499614                      -6.037965 
 133                                  -6.535466             0.497517                      -6.037949 
 134                                  -6.533171             0.495238                      -6.037933 
 135                                  -6.530954             0.493037                      -6.037918 
 136                                  -6.529096             0.491193                      -6.037904 
 137                                  -6.527857             0.489958                      -6.037899 
 138                                  -6.527416             0.489511                      -6.037906 
 139                                  -6.527845             0.489923                      -6.037922 
 140                                  -6.529097             0.491157                      -6.037940 
 141                                  -6.531030             0.493084                      -6.037946 
 142                                  -6.533476             0.495525                      -6.037951 
 143                                  -6.536245             0.498291                      -6.037954 
 144                                  -6.539174             0.501223                      -6.037950 
 145                                  -6.542162             0.504202                      -6.037960 
 146                                  -6.545158             0.507151                      -6.038007 
 147                                  -6.548083             0.510020                      -6.038063 
 148                                  -6.550896             0.512763                      -6.038133 
 149                                  -6.553545             0.515324                      -6.038222 
 150                                  -6.555932             0.517623                      -6.038309 
 151                                  -6.557949             0.519560                      -6.038389 
 152                                  -6.559478             0.521029                      -6.038449 
 153                                  -6.560440             0.521936                      -6.038504 
 154                                  -6.560767             0.522222                      -6.038545 
 155                                  -6.560448             0.521886                      -6.038562 
 156                                  -6.559546             0.520993                      -6.038553 
 157                                  -6.558197             0.519670                      -6.038526 
 158                                  -6.556573             0.518092                      -6.038481 
 159                                  -6.554906             0.516445                      -6.038461 
 160                                  -6.553344             0.514889                      -6.038455 
 161                                  -6.551967             0.513527                      -6.038440 
 162                                  -6.550817             0.512399                      -6.038418 
 163                                  -6.549908             0.511488                      -6.038421 
 164                                  -6.549198             0.510754                      -6.038443 
 165                                  -6.548605             0.510162                      -6.038444 
 166                                  -6.548114             0.509692                      -6.038421 
 167                                  -6.547764             0.509349                      -6.038415 
 168                                  -6.547581             0.509146                      -6.038435 
 169                                  -6.547563             0.509093                      -6.038470 
 170                                  -6.547699             0.509190                      -6.038509 
 171                                  -6.547973             0.509416                      -6.038557 
 172                                  -6.548329             0.509729                      -6.038600 
 173                                  -6.548716             0.510063                      -6.038653 
 174                                  -6.549036             0.510323                      -6.038712 
 175                                  -6.549155             0.510394                      -6.038761 
 176                                  -6.548944             0.510140                      -6.038804 
 177                                  -6.548272             0.509425                      -6.038847 
 178                                  -6.547006             0.508131                      -6.038875 
 179                                  -6.545079             0.506191                      -6.038888 
 180                                  -6.542506             0.503612                      -6.038894 
 181                                  -6.539368             0.500494                      -6.038874 
 182                                  -6.535866             0.497031                      -6.038836 
 183                                  -6.532279             0.493496                      -6.038783 
 184                                  -6.528931             0.490205                      -6.038725 
 185                                  -6.526146             0.487470                      -6.038677 
 186                                  -6.524201             0.485553                      -6.038648 
 187                                  -6.523267             0.484636                      -6.038631 
 188                                  -6.523411             0.484796                      -6.038614 
 189                                  -6.524600             0.486013                      -6.038587 
 190                                  -6.526735             0.488176                      -6.038559 
 191                                  -6.529630             0.491107                      -6.038523 
